t,x,y,u,v,theta,drag_coeff
0,0,0,0.766044,0.642788,0.698132,1
0.01,0.00762214,0.00633957,0.758384,0.625127,0.698132
0.02,0.0151687,0.0125036,0.75093,0.607674,0.698132
0.03,0.0226417,0.018494,0.743676,0.59042,0.698132
0.04,0.0300432,0.0243129,0.736615,0.573358,0.698132
0.05,0.037375,0.0299621,0.729739,0.556482,0.698132
0.06,0.0446389,0.0354435,0.723042,0.539785,0.698132
0.07,0.0518367,0.0407587,0.716518,0.523261,0.698132
0.08,0.0589701,0.0459095,0.710161,0.506904,0.698132
0.09,0.0660407,0.0508976,0.703964,0.490708,0.698132
0.1,0.0730501,0.0557245,0.697924,0.474667,0.698132
0.11,0.0799999,0.0603917,0.692033,0.458776,0.698132
0.12,0.0868915,0.0649007,0.686287,0.44303,0.698132
0.13,0.0937264,0.069253,0.680681,0.427424,0.698132
0.14,0.100506,0.0734499,0.67521,0.411953,0.698132
0.15,0.107231,0.0774927,0.669869,0.396612,0.698132
0.16,0.113904,0.0813827,0.664655,0.381398,0.698132
0.17,0.120525,0.0851212,0.659561,0.366304,0.698132
0.18,0.127096,0.0887094,0.654585,0.351328,0.698132
0.19,0.133617,0.0921484,0.649722,0.336465,0.698132
0.2,0.140091,0.0954393,0.644968,0.321711,0.698132
0.21,0.146517,0.0985831,0.64032,0.307063,0.698132
0.22,0.152898,0.101581,0.635773,0.292516,0.698132
0.23,0.159233,0.104434,0.631323,0.278066,0.698132
0.24,0.165524,0.107143,0.626968,0.263711,0.698132
0.25,0.171773,0.109709,0.622704,0.249447,0.698132
0.26,0.177979,0.112132,0.618526,0.23527,0.698132
0.27,0.184144,0.114414,0.614433,0.221176,0.698132
0.28,0.190268,0.116556,0.610421,0.207164,0.698132
0.29,0.196353,0.118558,0.606486,0.193229,0.698132
0.3,0.202398,0.120421,0.602626,0.179369,0.698132
0.31,0.208405,0.122146,0.598836,0.16558,0.698132
0.32,0.214375,0.123733,0.595116,0.151859,0.698132
0.33,0.220308,0.125183,0.591461,0.138204,0.698132
0.34,0.226205,0.126497,0.587868,0.124611,0.698132
0.35,0.232066,0.127676,0.584336,0.111079,0.698132
0.36,0.237892,0.128719,0.58086,0.0976031,0.698132
0.37,0.243683,0.129628,0.577439,0.0841818,0.698132
0.38,0.249441,0.130403,0.574069,0.0708122,0.698132
0.39,0.255165,0.131045,0.570749,0.0574917,0.698132
0.4,0.260856,0.131553,0.567475,0.0442177,0.698132
0.41,0.266515,0.131929,0.564244,0.0309877,0.698132
0.42,0.272141,0.132173,0.561056,0.0177991,0.698132
0.43,0.277736,0.132285,0.557907,0.00464972,0.698132
0.44,0.283299,0.132266,0.554794,-0.00846299,0.698132
0.45,0.288832,0.132116,0.551716,-0.0215413,0.698132
0.46,0.294334,0.131836,0.548669,-0.0345875,0.698132
0.47,0.299805,0.131425,0.545653,-0.0476039,0.698132
0.48,0.305247,0.130884,0.542664,-0.0605926,0.698132
0.49,0.310659,0.130213,0.539701,-0.0735557,0.698132
0.5,0.316041,0.129413,0.536761,-0.0864954,0.698132
0.51,0.321394,0.128483,0.533843,-0.0994137,0.698132
0.52,0.326718,0.127425,0.530944,-0.112313,0.698132
0.53,0.332013,0.126237,0.528063,-0.125194,0.698132
0.54,0.337279,0.124921,0.525197,-0.13806,0.698132
0.55,0.342517,0.123476,0.522345,-0.150912,0.698132
0.56,0.347726,0.121903,0.519505,-0.163752,0.698132
0.57,0.352907,0.120201,0.516675,-0.176582,0.698132
0.58,0.35806,0.118371,0.513854,-0.189403,0.698132
0.59,0.363184,0.116413,0.51104,-0.202217,0.698132
0.6,0.368281,0.114327,0.508231,-0.215025,0.698132
0.61,0.373349,0.112112,0.505427,-0.22783,0.698132
0.62,0.378389,0.10977,0.502625,-0.240632,0.698132
0.63,0.383402,0.1073,0.499824,-0.253433,0.698132
0.64,0.388386,0.104701,0.497023,-0.266234,0.698132
0.65,0.393342,0.101975,0.49422,-0.279037,0.698132
0.66,0.39827,0.0991207,0.491415,-0.291842,0.698132
0.67,0.40317,0.0961383,0.488607,-0.30465,0.698132
0.68,0.408042,0.0930277,0.485793,-0.317464,0.698132
0.69,0.412886,0.089789,0.482974,-0.330283,0.698132
0.7,0.417702,0.086422,0.480148,-0.343109,0.698132
0.71,0.422489,0.0829267,0.477315,-0.355942,0.698132
0.72,0.427248,0.0793031,0.474473,-0.368784,0.698132
0.73,0.431978,0.075551,0.471621,-0.381636,0.698132
0.74,0.43668,0.0716703,0.46876,-0.394497,0.698132
0.75,0.441354,0.067661,0.465888,-0.407369,0.698132
0.76,0.445998,0.0635229,0.463005,-0.420252,0.698132
0.77,0.450614,0.0592559,0.46011,-0.433147,0.698132
0.78,0.4552,0.0548599,0.457202,-0.446055,0.698132
0.79,0.459758,0.0503348,0.454282,-0.458975,0.698132
0.8,0.464286,0.0456803,0.451348,-0.471909,0.698132
0.81,0.468785,0.0408965,0.448401,-0.484856,0.698132
0.82,0.473254,0.0359832,0.44544,-0.497817,0.698132
0.83,0.477693,0.0309401,0.442464,-0.510793,0.698132
0.84,0.482103,0.0257672,0.439474,-0.523783,0.698132
0.85,0.486483,0.0204644,0.436469,-0.536788,0.698132
0.86,0.490832,0.0150314,0.433449,-0.549807,0.698132
0.87,0.495152,0.00946815,0.430415,-0.562842,0.698132
0.88,0.49944,0.00377448,0.427365,-0.575892,0.698132
0.89,0.503699,-0.00204977,0.4243,-0.588957,0.698132
0,0,0,0.707107,0.707107,0.785398,1
0.01,0.00703571,0.00698571,0.700036,0.690036,0.785398,1
0.02,0.0140017,0.0138017,0.693155,0.673155,0.785398,1
0.03,0.0208997,0.0204497,0.686457,0.656457,0.785398,1
0.04,0.0277317,0.0269317,0.679937,0.639937,0.785398,1
0.05,0.0344993,0.0332493,0.673588,0.623588,0.785398,1
0.06,0.0412043,0.0394043,0.667405,0.607405,0.785398,1
0.07,0.0478482,0.0453982,0.661383,0.591383,0.785398,1
0.08,0.0544327,0.0512327,0.655515,0.575515,0.785398,1
0.09,0.0609593,0.0569093,0.649797,0.559797,0.785398,1
0.1,0.0674294,0.0624294,0.644223,0.544223,0.785398,1
0.11,0.0738444,0.0677944,0.63879,0.52879,0.785398,1
0.12,0.0802059,0.0730059,0.633493,0.513493,0.785398,1
0.13,0.086515,0.078065,0.628327,0.498327,0.785398,1
0.14,0.092773,0.082973,0.623288,0.483288,0.785398,1
0.15,0.0989813,0.0877313,0.618372,0.468372,0.785398,1
0.16,0.105141,0.0923411,0.613576,0.453576,0.785398,1
0.17,0.111253,0.0968034,0.608894,0.438894,0.785398,1
0.18,0.11732,0.10112,0.604324,0.424324,0.785398,1
0.19,0.12334,0.10529,0.599861,0.409861,0.785398,1
0.2,0.129317,0.109317,0.595503,0.395503,0.785398,1
0.21,0.135251,0.113201,0.591246,0.381246,0.785398,1
0.22,0.141143,0.116943,0.587087,0.367087,0.785398,1
0.23,0.146993,0.120543,0.583022,0.353022,0.785398,1
0.24,0.152804,0.124004,0.579048,0.339048,0.785398,1
0.25,0.158575,0.127325,0.575162,0.325162,0.785398,1
0.26,0.164307,0.130507,0.571362,0.311362,0.785398,1
0.27,0.170002,0.133552,0.567644,0.297644,0.785398,1
0.28,0.175661,0.136461,0.564006,0.284006,0.785398,1
0.29,0.181283,0.139233,0.560445,0.270445,0.785398,1
0.3,0.18687,0.14187,0.556957,0.256957,0.785398,1
0.31,0.192422,0.144372,0.553541,0.243541,0.785398,1
0.32,0.197941,0.146741,0.550193,0.230193,0.785398,1
0.33,0.203426,0.148976,0.546912,0.216912,0.785398,1
0.34,0.208879,0.151079,0.543694,0.203694,0.785398,1
0.35,0.214301,0.153051,0.540537,0.190537,0.785398,1
0.36,0.219691,0.154891,0.537439,0.177439,0.785398,1
0.37,0.22505,0.1566,0.534398,0.164398,0.785398,1
0.38,0.230379,0.158179,0.53141,0.15141,0.785398,1
0.39,0.235678,0.159628,0.528473,0.138473,0.785398,1
0.4,0.240948,0.160948,0.525586,0.125586,0.785398,1
0.41,0.24619,0.16214,0.522746,0.112746,0.785398,1
0.42,0.251404,0.163204,0.519951,0.0999506,0.785398,1
0.43,0.256589,0.164139,0.517198,0.0871976,0.785398,1
0.44,0.261748,0.164948,0.514485,0.0744849,0.785398,1
0.45,0.266879,0.165629,0.51181,0.0618104,0.785398,1
0.46,0.271984,0.166184,0.509172,0.0491718,0.785398,1
0.47,0.277063,0.166613,0.506567,0.0365672,0.785398,1
0.48,0.282116,0.166916,0.503994,0.0239944,0.785398,1
0.49,0.287143,0.167093,0.501451,0.0114515,0.785398,1
0.5,0.292145,0.167145,0.498936,-0.00106374,0.785398,1
0.51,0.297122,0.167072,0.496447,-0.0135531,0.785398,1
0.52,0.302074,0.166874,0.493981,-0.0260186,0.785398,1
0.53,0.307001,0.166551,0.491538,-0.0384622,0.785398,1
0.54,0.311905,0.166105,0.489114,-0.0508857,0.785398,1
0.55,0.316784,0.165534,0.486709,-0.0632909,0.785398,1
0.56,0.321639,0.164839,0.48432,-0.0756797,0.785398,1
0.57,0.32647,0.16402,0.481946,-0.0880538,0.785398,1
0.58,0.331278,0.163078,0.479585,-0.100415,0.785398,1
0.59,0.336062,0.162012,0.477235,-0.112765,0.785398,1
0.6,0.340823,0.160823,0.474895,-0.125105,0.785398,1
0.61,0.34556,0.15951,0.472563,-0.137437,0.785398,1
0.62,0.350274,0.158074,0.470237,-0.149763,0.785398,1
0.63,0.354965,0.156515,0.467916,-0.162084,0.785398,1
0.64,0.359632,0.154832,0.465599,-0.174401,0.785398,1
0.65,0.364277,0.153027,0.463284,-0.186716,0.785398,1
0.66,0.368898,0.151098,0.46097,-0.19903,0.785398,1
0.67,0.373496,0.149046,0.458656,-0.211344,0.785398,1
0.68,0.378071,0.146871,0.456339,-0.223661,0.785398,1
0.69,0.382623,0.144573,0.45402,-0.23598,0.785398,1
0.7,0.387152,0.142152,0.451697,-0.248303,0.785398,1
0.71,0.391657,0.139607,0.449369,-0.260631,0.785398,1
0.72,0.396139,0.136939,0.447035,-0.272965,0.785398,1
0.73,0.400598,0.134148,0.444693,-0.285307,0.785398,1
0.74,0.405033,0.131233,0.442343,-0.297657,0.785398,1
0.75,0.409444,0.128194,0.439985,-0.310015,0.785398,1
0.76,0.413832,0.125032,0.437617,-0.322383,0.785398,1
0.77,0.418197,0.121747,0.435238,-0.334762,0.785398,1
0.78,0.422537,0.118337,0.432848,-0.347152,0.785398,1
0.79,0.426854,0.114804,0.430447,-0.359553,0.785398,1
0.8,0.431146,0.111146,0.428033,-0.371967,0.785398,1
0.81,0.435414,0.107364,0.425605,-0.384395,0.785398,1
0.82,0.439658,0.103458,0.423164,-0.396836,0.785398,1
0.83,0.443877,0.0994274,0.42071,-0.40929,0.785398,1
0.84,0.448072,0.0952721,0.41824,-0.42176,0.785398,1
0.85,0.452242,0.0909921,0.415756,-0.434244,0.785398,1
0.86,0.456387,0.0865872,0.413256,-0.446744,0.785398,1
0.87,0.460507,0.0820571,0.410742,-0.459258,0.785398,1
0.88,0.464602,0.0774019,0.408211,-0.471789,0.785398,1
0.89,0.468671,0.0726213,0.405664,-0.484336,0.785398,1
0.9,0.472715,0.0677151,0.403101,-0.496899,0.785398,1
0.91,0.476733,0.0626832,0.400522,-0.509478,0.785398,1
0.92,0.480725,0.0575255,0.397926,-0.522074,0.785398,1
0.93,0.484692,0.0522417,0.395314,-0.534686,0.785398,1
0.94,0.488632,0.0468317,0.392686,-0.547314,0.785398,1
0.95,0.492545,0.0412953,0.39004,-0.55996,0.785398,1
0.96,0.496432,0.0356324,0.387379,-0.572621,0.785398,1
0.97,0.500293,0.0298428,0.384701,-0.585299,0.785398,1
0.98,0.504126,0.0239263,0.382006,-0.597994,0.785398,1
0.99,0.507933,0.0178828,0.379295,-0.610705,0.785398,1
1,0.511712,0.0117121,0.376569,-0.623431,0.785398,1
1.01,0.515464,0.00541411,0.373826,-0.636174,0.785398,1
1.02,0.519189,-0.00101142,0.371068,-0.648932,0.785398,1
0,0,0,0.642788,0.766044,0.872665,1
0.01,0.00639574,0.00757831,0.63636,0.749617,0.872665
0.02,0.012728,0.0149932,0.630102,0.733359,0.872665
0.03,0.0189986,0.0222463,0.62401,0.717267,0.872665
0.04,0.025209,0.0293393,0.618078,0.701334,0.872665
0.05,0.0313609,0.0362738,0.6123,0.685556,0.872665
0.06,0.0374558,0.0430512,0.606671,0.669928,0.872665
0.07,0.0434951,0.0496731,0.601188,0.654445,0.872665
0.08,0.0494803,0.0561408,0.595846,0.639103,0.872665
0.09,0.0554127,0.0624558,0.590639,0.623896,0.872665
0.1,0.0612937,0.0686194,0.585565,0.608822,0.872665
0.11,0.0671246,0.0746329,0.580619,0.593876,0.872665
0.12,0.0729067,0.0804975,0.575796,0.579053,0.872665
0.13,0.0786412,0.0862145,0.571094,0.564351,0.872665
0.14,0.0843292,0.0917851,0.566509,0.549766,0.872665
0.15,0.0899719,0.0972104,0.562037,0.535294,0.872665
0.16,0.0955705,0.102492,0.557675,0.520932,0.872665
0.17,0.101126,0.10763,0.553419,0.506676,0.872665
0.18,0.106639,0.112626,0.549266,0.492523,0.872665
0.19,0.112112,0.117481,0.545214,0.478471,0.872665
0.2,0.117544,0.122196,0.541259,0.464516,0.872665
0.21,0.122937,0.126771,0.537399,0.450656,0.872665
0.22,0.128293,0.131209,0.53363,0.436887,0.872665
0.23,0.13361,0.13551,0.52995,0.423206,0.872665
0.24,0.138892,0.139674,0.526355,0.409612,0.872665
0.25,0.144138,0.143702,0.522845,0.396102,0.872665
0.26,0.149349,0.147596,0.519415,0.382672,0.872665
0.27,0.154527,0.151356,0.516064,0.369321,0.872665
0.28,0.159671,0.154983,0.512789,0.356046,0.872665
0.29,0.164783,0.158477,0.509588,0.342845,0.872665
0.3,0.169863,0.16184,0.506458,0.329715,0.872665
0.31,0.174912,0.165072,0.503398,0.316654,0.872665
0.32,0.179931,0.168174,0.500404,0.303661,0.872665
0.33,0.184921,0.171146,0.497475,0.290732,0.872665
0.34,0.189881,0.173988,0.494608,0.277865,0.872665
0.35,0.194813,0.176703,0.491802,0.265059,0.872665
0.36,0.199718,0.17929,0.489055,0.252312,0.872665
0.37,0.204595,0.18175,0.486363,0.23962,0.872665
0.38,0.209445,0.184083,0.483726,0.226983,0.872665
0.39,0.214269,0.18629,0.481142,0.214399,0.872665
0.4,0.219068,0.188371,0.478607,0.201864,0.872665
0.41,0.223842,0.190327,0.476121,0.189378,0.872665
0.42,0.228591,0.192159,0.473682,0.176938,0.872665
0.43,0.233316,0.193866,0.471286,0.164543,0.872665
0.44,0.238017,0.19545,0.468934,0.152191,0.872665
0.45,0.242695,0.19691,0.466622,0.139879,0.872665
0.46,0.247349,0.198248,0.464349,0.127606,0.872665
0.47,0.251982,0.199462,0.462113,0.11537,0.872665
0.48,0.256592,0.200555,0.459912,0.103169,0.872665
0.49,0.26118,0.201526,0.457744,0.0910008,0.872665
0.5,0.265747,0.202375,0.455608,0.0788645,0.872665
0.51,0.270292,0.203103,0.453501,0.0667578,0.872665
0.52,0.274817,0.203711,0.451422,0.054679,0.872665
0.53,0.279321,0.204197,0.449369,0.0426263,0.872665
0.54,0.283804,0.204563,0.447341,0.0305979,0.872665
0.55,0.288268,0.204809,0.445335,0.0185921,0.872665
0.56,0.292711,0.204935,0.44335,0.00660714,0.872665
0.57,0.297135,0.204941,0.441384,-0.00535867,0.872665
0.58,0.301539,0.204828,0.439436,-0.017307,0.872665
0.59,0.305924,0.204595,0.437504,-0.0292396,0.872665
0.6,0.310289,0.204243,0.435585,-0.0411579,0.872665
0.61,0.314636,0.203772,0.433679,-0.0530637,0.872665
0.62,0.318963,0.203182,0.431785,-0.0649585,0.872665
0.63,0.323271,0.202473,0.429899,-0.0768439,0.872665
0.64,0.327561,0.201645,0.428022,-0.0887213,0.872665
0.65,0.331832,0.200699,0.426151,-0.100592,0.872665
0.66,0.336084,0.199633,0.424285,-0.112458,0.872665
0.67,0.340317,0.19845,0.422423,-0.124321,0.872665
0.68,0.344532,0.197147,0.420563,-0.136181,0.872665
0.69,0.348729,0.195726,0.418703,-0.14804,0.872665
0.7,0.352906,0.194186,0.416844,-0.159899,0.872665
0.71,0.357066,0.192528,0.414983,-0.17176,0.872665
0.72,0.361206,0.190751,0.413119,-0.183624,0.872665
0.73,0.365328,0.188855,0.411251,-0.195492,0.872665
0.74,0.369431,0.186841,0.409379,-0.207364,0.872665
0.75,0.373516,0.184708,0.4075,-0.219243,0.872665
0.76,0.377581,0.182456,0.405614,-0.231129,0.872665
0.77,0.381628,0.180086,0.403721,-0.243022,0.872665
0.78,0.385655,0.177596,0.401818,-0.254925,0.872665
0.79,0.389664,0.174987,0.399906,-0.266837,0.872665
0.8,0.393654,0.172259,0.397984,-0.278759,0.872665
0.81,0.397624,0.169412,0.39605,-0.290693,0.872665
0.82,0.401574,0.166445,0.394104,-0.302639,0.872665
0.83,0.405506,0.163359,0.392146,-0.314597,0.872665
0.84,0.409417,0.160153,0.390174,-0.326569,0.872665
0.85,0.413309,0.156827,0.388189,-0.338554,0.872665
0.86,0.417181,0.153382,0.38619,-0.350553,0.872665
0.87,0.421033,0.149816,0.384176,-0.362568,0.872665
0.88,0.424864,0.14613,0.382146,-0.374597,0.872665
0.89,0.428676,0.142324,0.380101,-0.386642,0.872665
0.9,0.432466,0.138398,0.37804,-0.398703,0.872665
0.91,0.436236,0.13435,0.375963,-0.41078,0.872665
0.92,0.439986,0.130182,0.37387,-0.422874,0.872665
0.93,0.443714,0.125893,0.371759,-0.434984,0.872665
0.94,0.447421,0.121482,0.369632,-0.447111,0.872665
0.95,0.451106,0.11695,0.367488,-0.459255,0.872665
0.96,0.45477,0.112297,0.365326,-0.471417,0.872665
0.97,0.458413,0.107522,0.363147,-0.483596,0.872665
0.98,0.462033,0.102625,0.360951,-0.495792,0.872665
0.99,0.465632,0.0976059,0.358738,-0.508005,0.872665
1,0.469208,0.0924647,0.356507,-0.520236,0.872665
1.01,0.472762,0.0872011,0.354258,-0.532485,0.872665
1.02,0.476293,0.081815,0.351993,-0.544751,0.872665
1.03,0.479801,0.076306,0.34971,-0.557033,0.872665
1.04,0.483287,0.0706742,0.34741,-0.569334,0.872665
1.05,0.48675,0.0649193,0.345093,-0.581651,0.872665
1.06,0.490189,0.0590411,0.342759,-0.593985,0.872665
1.07,0.493605,0.0530395,0.340408,-0.606335,0.872665
1.08,0.496997,0.0469143,0.338041,-0.618702,0.872665
1.09,0.500365,0.0406654,0.335658,-0.631085,0.872665
1.1,0.50371,0.0342925,0.333258,-0.643485,0.872665
1.11,0.507031,0.0277956,0.330843,-0.6559,0.872665
1.12,0.510327,0.0211745,0.328413,-0.66833,0.872665
1.13,0.513599,0.0144289,0.325967,-0.680776,0.872665
1.14,0.516846,0.00755886,0.323507,-0.693236,0.872665
1.15,0.520069,0.000564128,0.321032,-0.705711,0.872665
1.16,0.523267,-0.00655543,0.318543,-0.7182,0.872665
